# == Filter Data - Lambda 9 Spectrophotometer ==
# Kitt Peak National Observatory - NOAO
# ------------------------------------------------
# Filter: SDSS R #719 P4 .5/60/0.5 22.9C
# Date: 03/22/02   Time: 11:16:24  Operator: JDV
# cwl=  6292.28A  fwhm= 1475.17A  Tmax= 92.83% at  6465.00A
# Tcutoff=  2.00 %  Slitsize =  5 A
# fwhm spans 5554.69A to 7029.86A
# 90%  spans 5708.57A to 7013.76A
# bw90 is  0.885; Tmin90/Tmax is  0.810
# No data smoothing
# 
# Npts=  391     Disp=  5.00A/Interval
5300.0 -5e-05
5305.0 -5e-05
5310.0 -5e-05
5315.0 -5e-05
5320.0 -5e-05
5325.0 0.0
5330.0 0.0
5335.0 0.0
5340.0 -5e-05
5345.0 -5e-05
5350.0 0.0
5355.0 -5e-05
5360.0 0.0
5365.0 -5e-05
5370.0 0.0
5375.0 5e-05
5380.0 5e-05
5385.0 0.00015
5390.0 0.0003
5395.0 0.00055
5400.0 0.0009
5405.0 0.00155
5410.0 0.00245
5415.0 0.00385
5420.0 0.00565
5425.0 0.0081
5430.0 0.0114
5435.0 0.0158
5440.0 0.021
5445.0 0.02765
5450.0 0.0357
5455.0 0.0451
5460.0 0.0557
5465.0 0.068
5470.0 0.08185
5475.0 0.09755
5480.0 0.1148
5485.0 0.1334
5490.0 0.1533
5495.0 0.175
5500.0 0.19745
5505.0 0.2215
5510.0 0.2465
5515.0 0.27025
5520.0 0.2965
5525.0 0.3213
5530.0 0.34665
5535.0 0.37165
5540.0 0.396
5545.0 0.42035
5550.0 0.44405
5555.0 0.4655
5560.0 0.4869
5565.0 0.50695
5570.0 0.52615
5575.0 0.54435
5580.0 0.56165
5585.0 0.57835
5590.0 0.59565
5595.0 0.611
5600.0 0.626
5605.0 0.6415
5610.0 0.656
5615.0 0.6679
5620.0 0.68185
5625.0 0.69365
5630.0 0.7063
5635.0 0.71775
5640.0 0.72995
5645.0 0.74085
5650.0 0.7527
5655.0 0.76205
5660.0 0.7718
5665.0 0.7817
5670.0 0.79015
5675.0 0.7968
5680.0 0.8037
5685.0 0.8112
5690.0 0.81815
5695.0 0.82235
5700.0 0.8286
5705.0 0.8323
5710.0 0.8368
5715.0 0.84005
5720.0 0.8435
5725.0 0.8469
5730.0 0.8509
5735.0 0.85295
5740.0 0.855
5745.0 0.8603
5750.0 0.8616
5755.0 0.8642
5760.0 0.86645
5765.0 0.86875
5770.0 0.8711
5775.0 0.87115
5780.0 0.8722
5785.0 0.8753
5790.0 0.87485
5795.0 0.8744
5800.0 0.8759
5805.0 0.8727
5810.0 0.8738
5815.0 0.87305
5820.0 0.8704
5825.0 0.8681
5830.0 0.86785
5835.0 0.86495
5840.0 0.86185
5845.0 0.85985
5850.0 0.85845
5855.0 0.8545
5860.0 0.8551
5865.0 0.85275
5870.0 0.85185
5875.0 0.85085
5880.0 0.851
5885.0 0.85165
5890.0 0.851
5895.0 0.8526
5900.0 0.8536
5905.0 0.85695
5910.0 0.8611
5915.0 0.86405
5920.0 0.8673
5925.0 0.8716
5930.0 0.87525
5935.0 0.87995
5940.0 0.88325
5945.0 0.8873
5950.0 0.89325
5955.0 0.896
5960.0 0.9
5965.0 0.9021
5970.0 0.90715
5975.0 0.90945
5980.0 0.9116
5985.0 0.9117
5990.0 0.91375
5995.0 0.91315
6000.0 0.91205
6005.0 0.9107
6010.0 0.9106
6015.0 0.9093
6020.0 0.9075
6025.0 0.90485
6030.0 0.90225
6035.0 0.8985
6040.0 0.8976
6045.0 0.89455
6050.0 0.8903
6055.0 0.8864
6060.0 0.8862
6065.0 0.8837
6070.0 0.8831
6075.0 0.8805
6080.0 0.88
6085.0 0.8799
6090.0 0.87765
6095.0 0.88
6100.0 0.88095
6105.0 0.88175
6110.0 0.88285
6115.0 0.88365
6120.0 0.8854
6125.0 0.8872
6130.0 0.8896
6135.0 0.8927
6140.0 0.8945
6145.0 0.8977
6150.0 0.9011
6155.0 0.90255
6160.0 0.90415
6165.0 0.90785
6170.0 0.9115
6175.0 0.91315
6180.0 0.9143
6185.0 0.91685
6190.0 0.9173
6195.0 0.92145
6200.0 0.92045
6205.0 0.9227
6210.0 0.9227
6215.0 0.9222
6220.0 0.92335
6225.0 0.9247
6230.0 0.9223
6235.0 0.91915
6240.0 0.9191
6245.0 0.91715
6250.0 0.915
6255.0 0.91145
6260.0 0.91095
6265.0 0.9073
6270.0 0.9042
6275.0 0.89975
6280.0 0.8976
6285.0 0.89235
6290.0 0.89125
6295.0 0.88765
6300.0 0.8827
6305.0 0.8814
6310.0 0.8776
6315.0 0.8744
6320.0 0.872
6325.0 0.8702
6330.0 0.8667
6335.0 0.8658
6340.0 0.86365
6345.0 0.862
6350.0 0.8627
6355.0 0.8604
6360.0 0.86335
6365.0 0.8602
6370.0 0.86415
6375.0 0.8645
6380.0 0.86965
6385.0 0.8706
6390.0 0.875
6395.0 0.87725
6400.0 0.88175
6405.0 0.88675
6410.0 0.89115
6415.0 0.89615
6420.0 0.90075
6425.0 0.9036
6430.0 0.90945
6435.0 0.91415
6440.0 0.9195
6445.0 0.9201
6450.0 0.92335
6455.0 0.9259
6460.0 0.9257
6465.0 0.92835
6470.0 0.92585
6475.0 0.92665
6480.0 0.92585
6485.0 0.9213
6490.0 0.91965
6495.0 0.9155
6500.0 0.91185
6505.0 0.9087
6510.0 0.9025
6515.0 0.8991
6520.0 0.8935
6525.0 0.8876
6530.0 0.88335
6535.0 0.8773
6540.0 0.8731
6545.0 0.8679
6550.0 0.86255
6555.0 0.86115
6560.0 0.858
6565.0 0.8553
6570.0 0.85435
6575.0 0.85245
6580.0 0.85245
6585.0 0.85355
6590.0 0.8555
6595.0 0.85665
6600.0 0.8592
6605.0 0.8604
6610.0 0.865
6615.0 0.86705
6620.0 0.86965
6625.0 0.8733
6630.0 0.87675
6635.0 0.8811
6640.0 0.88135
6645.0 0.88615
6650.0 0.8891
6655.0 0.89135
6660.0 0.8946
6665.0 0.89125
6670.0 0.894
6675.0 0.89485
6680.0 0.89325
6685.0 0.89285
6690.0 0.8897
6695.0 0.88565
6700.0 0.8849
6705.0 0.8816
6710.0 0.87865
6715.0 0.87795
6720.0 0.87505
6725.0 0.87265
6730.0 0.8685
6735.0 0.8665
6740.0 0.86655
6745.0 0.8626
6750.0 0.8635
6755.0 0.86195
6760.0 0.86025
6765.0 0.8618
6770.0 0.86125
6775.0 0.8586
6780.0 0.85915
6785.0 0.8567
6790.0 0.8564
6795.0 0.8574
6800.0 0.8539
6805.0 0.85035
6810.0 0.84505
6815.0 0.83995
6820.0 0.8334
6825.0 0.82585
6830.0 0.8206
6835.0 0.81605
6840.0 0.8037
6845.0 0.79645
6850.0 0.7902
6855.0 0.78045
6860.0 0.7742
6865.0 0.76955
6870.0 0.7639
6875.0 0.757
6880.0 0.7545
6885.0 0.75155
6890.0 0.7519
6895.0 0.7536
6900.0 0.75495
6905.0 0.7582
6910.0 0.7587
6915.0 0.7642
6920.0 0.7705
6925.0 0.77605
6930.0 0.78045
6935.0 0.7846
6940.0 0.7889
6945.0 0.79005
6950.0 0.7915
6955.0 0.79475
6960.0 0.79585
6965.0 0.79565
6970.0 0.79885
6975.0 0.8027
6980.0 0.81255
6985.0 0.82375
6990.0 0.84065
6995.0 0.8598
7000.0 0.8796
7005.0 0.8887
7010.0 0.87585
7015.0 0.82215
7020.0 0.7287
7025.0 0.6016
7030.0 0.4602
7035.0 0.33265
7040.0 0.23365
7045.0 0.16165
7050.0 0.1112
7055.0 0.0776
7060.0 0.0546
7065.0 0.0391
7070.0 0.02815
7075.0 0.02055
7080.0 0.01525
7085.0 0.0113
7090.0 0.0085
7095.0 0.0064
7100.0 0.00485
7105.0 0.00365
7110.0 0.0029
7115.0 0.00235
7120.0 0.0018
7125.0 0.0014
7130.0 0.00115
7135.0 0.0009
7140.0 0.00075
7145.0 0.0006
7150.0 0.0005
7155.0 0.00035
7160.0 0.0003
7165.0 0.00025
7170.0 0.0002
7175.0 0.00015
7180.0 0.00015
7185.0 0.00015
7190.0 0.0001
7195.0 0.0001
7200.0 5e-05
7205.0 5e-05
7210.0 5e-05
7215.0 0.0
7220.0 5e-05
7225.0 0.0
7230.0 0.0
7235.0 0.0
7240.0 0.0
7245.0 0.0
7250.0 0.0
